x_scaled	amplitude
-4.0,0.09803671711404072
-3.959798994974874,0.08456081118013659
-3.919597989949749,0.07056192651488899
-3.879396984924623,0.05606560772043742
-3.8391959798994977,0.04109964843917713
-3.798994974874372,0.025694170823326673
-3.758793969849246,0.009881715192283855
-3.7185929648241207,0.006302678633318334
-3.678391959798995,0.022821313851444248
-3.6381909547738696,0.03963380559002302
-3.5979899497487438,0.05669690437217737
-3.557788944723618,0.07396440220834077
-3.5175879396984926,0.09138701498334804
-3.477386934673367,0.10891227239985145
-3.437185929648241,0.12648441734832938
-3.3969849246231156,0.14404431926761257
-3.35678391959799,0.16152940660280402
-3.3165829145728645,0.1788736238544668
-3.2763819095477387,0.19600741898493937
-3.236180904522613,0.2128577670825292
-3.1959798994974875,0.229348236152919
-3.1557788944723617,0.2453991006795936
-3.1155778894472363,0.26092750814413274
-3.0753768844221105,0.2758477030002964
-3.0351758793969847,0.29007131163810523
-2.9949748743718594,0.3035076906513603
-2.9547738693467336,0.3160643392434886
-2.9145728643216082,0.327647374897703
-2.8743718592964824,0.33816206954198197
-2.8341708542713566,0.347513441420559
-2.7939698492462313,0.35560689582427973
-2.7537688442211055,0.3623489058330886
-2.71356783919598,0.3676477224006366
-2.6733668341708543,0.37141410158891897
-2.6331658291457285,0.3735620356685217
-2.592964824120603,0.37400947426137665
-2.5527638190954773,0.3726790218283808
-2.512562814070352,0.3694985986822344
-2.472361809045226,0.3644020543946145
-2.4321608040201004,0.3573297249879483
-2.391959798994975,0.34822892863627286
-2.351758793969849,0.3370543986852873
-2.3115577889447234,0.3237686575360402
-2.271356783919598,0.3083423401801789
-2.2311557788944723,0.2907544817571669
-2.190954773869347,0.27099278923193304
-2.150753768844221,0.24905392295563364
-2.1105527638190953,0.2249438192531181
-2.07035175879397,0.19867809005148812
-2.030150753768844,0.17028253969010798
-1.9899497487437185,0.1397938421852365
-1.949748743718593,0.10726042409056251
-1.9095477386934674,0.07274359839174516
-1.8693467336683418,0.03631899326807164
-1.829145728643216,0.0019216913588913727
-1.7889447236180904,0.04186852111291341
-1.7487437185929648,0.08339086773745732
-1.7085427135678393,0.12633443035344988
-1.6683417085427135,0.1705179574161634
-1.6281407035175879,0.21572958218122273
-1.5879396984924623,0.26172287581939624
-1.5477386934673367,0.30821271247062815
-1.5075376884422111,0.35487108503522125
-1.4673366834170853,0.40132305216397746
-1.4271356783919598,0.44714303772720154
-1.3869346733668342,0.4918517392365876
-1.3467336683417086,0.5349139247915417
-1.306532663316583,0.5757374011362812
-1.2663316582914572,0.6136734094067589
-1.2261306532663316,0.6480186412916527
-1.185929648241206,0.6780189595338012
-1.1457286432160805,0.7028747496691412
-1.1055276381909547,0.7217476274303081
-1.065326633165829,0.7337679892089451
-1.0251256281407035,0.7380426414898241
-0.9849246231155779,0.7336615083206911
-0.9447236180904522,0.7197022297097584
-0.9045226130653267,0.6952313678863651
-0.864321608040201,0.6593009717240707
-0.8241206030150754,0.6109394484308983
-0.7839195979899497,0.5491360902629011
-0.7437185929648241,0.4728192428836361
-0.7035175879396985,0.3808290437012064
-0.6633165829145728,0.27188701402436194
-0.6231155778894473,0.14456675259270713
-0.5829145728643216,0.002727133369160598
-0.542713567839196,0.17176043175987007
-0.5025125628140703,0.364433361715607
-0.4623115577889447,0.5826805809081343
-0.4221105527638191,0.8282688091953974
-0.38190954773869346,1.1024403519095098
-0.3417085427135678,1.405340664410611
-0.3015075376884422,1.7351727675381645
-0.2613065326633166,2.0870634407740187
-0.22110552763819097,2.451739468220554
-0.18090452261306533,2.814326952535827
-0.1407035175879397,3.1538827491631864
-0.10050251256281408,3.4444958476379424
-0.06030150753768844,3.658643302430011
-0.020100502512562814,3.7726405145918993
0.020100502512562814,3.7726405145918993
0.06030150753768844,3.658643302430011
0.10050251256281408,3.4444958476379424
0.1407035175879397,3.153882749163187
0.18090452261306533,2.814326952535827
0.22110552763819097,2.451739468220554
0.2613065326633166,2.087063440774019
0.3015075376884422,1.735172767538165
0.3417085427135678,1.4053406644106108
0.38190954773869346,1.1024403519095094
0.4221105527638191,0.8282688091953976
0.4623115577889447,0.5826805809081348
0.5025125628140703,0.3644333617156073
0.542713567839196,0.17176043175986996
0.5829145728643216,0.0027271333691608357
0.6231155778894473,0.14456675259270685
0.6633165829145728,0.2718870140243617
0.7035175879396985,0.38082904370120624
0.7437185929648241,0.47281924288363614
0.7839195979899497,0.5491360902629011
0.8241206030150754,0.6109394484308983
0.864321608040201,0.6593009717240704
0.9045226130653267,0.6952313678863651
0.9447236180904522,0.719702229709759
0.9849246231155779,0.733661508320691
1.0251256281407035,0.7380426414898238
1.065326633165829,0.7337679892089449
1.1055276381909547,0.7217476274303081
1.1457286432160805,0.7028747496691412
1.185929648241206,0.6780189595338014
1.2261306532663316,0.648018641291653
1.2663316582914572,0.6136734094067589
1.306532663316583,0.5757374011362814
1.3467336683417086,0.5349139247915417
1.3869346733668342,0.4918517392365873
1.4271356783919598,0.44714303772720143
1.4673366834170853,0.40132305216397773
1.5075376884422111,0.35487108503522163
1.5477386934673367,0.3082127124706282
1.5879396984924623,0.26172287581939635
1.6281407035175879,0.21572958218122304
1.6683417085427135,0.17051795741616305
1.7085427135678393,0.12633443035345013
1.7487437185929648,0.0833908677374573
1.7889447236180904,0.041868521112913386
1.829145728643216,0.0019216913588912742
1.8693467336683418,0.03631899326807136
1.9095477386934674,0.07274359839174548
1.949748743718593,0.10726042409056213
1.9899497487437185,0.13979384218523652
2.030150753768844,0.17028253969010793
2.07035175879397,0.1986780900514882
2.1105527638190953,0.2249438192531178
2.150753768844221,0.24905392295563328
2.190954773869347,0.270992789231933
2.2311557788944723,0.2907544817571668
2.271356783919598,0.3083423401801789
2.3115577889447234,0.3237686575360403
2.351758793969849,0.33705439868528714
2.391959798994975,0.3482289286362727
2.4321608040201004,0.35732972498794835
2.472361809045226,0.3644020543946148
2.512562814070352,0.3694985986822347
2.5527638190954773,0.37267902182838114
2.592964824120603,0.37400947426137676
2.6331658291457285,0.37356203566852153
2.6733668341708543,0.37141410158891874
2.71356783919598,0.36764772240063653
2.7537688442211055,0.3623489058330886
2.7939698492462313,0.3556068958242796
2.8341708542713566,0.34751344142055857
2.8743718592964824,0.33816206954198175
2.9145728643216082,0.3276473748977033
2.9547738693467336,0.3160643392434886
2.9949748743718594,0.3035076906513605
3.0351758793969847,0.2900713116381051
3.0753768844221105,0.2758477030002966
3.1155778894472363,0.2609275081441329
3.1557788944723617,0.24539910067959367
3.1959798994974875,0.22934823615291883
3.236180904522613,0.21285776708252918
3.2763819095477387,0.19600741898493926
3.3165829145728645,0.17887362385446684
3.35678391959799,0.16152940660280404
3.3969849246231156,0.14404431926761266
3.437185929648241,0.12648441734832944
3.477386934673367,0.10891227239985125
3.5175879396984926,0.09138701498334816
3.557788944723618,0.07396440220834079
3.5979899497487438,0.05669690437217723
3.6381909547738696,0.03963380559002308
3.678391959798995,0.022821313851444463
3.7185929648241207,0.006302678633318223
3.758793969849246,0.009881715192283948
3.798994974874372,0.02569417082332668
3.8391959798994977,0.04109964843917709
3.879396984924623,0.05606560772043817
3.919597989949749,0.07056192651488889
3.959798994974874,0.0845608111801367
4.0,0.09803671711404073
